Index,I,W
356,0,580.8813496
357,0,580.9677601
358,0,581.0541698
359,0,581.1405786
360,0,581.2269867
361,0,581.313394
362,0,581.3998005
363,0,581.4862061
364,0,581.572611
365,0,581.6590151
366,0,581.7454184
367,0,581.831821
368,0,581.9182227
369,0,582.0046236
370,0,582.0910237
371,0,582.177423
372,0,582.2638216
373,0,582.3502193
374,0,582.4366162
375,0,582.5230124
376,0,582.6094077
377,0,582.6958023
378,0,582.782196
379,0,582.868589
380,0,582.9549811
381,0,583.0413725
382,0,583.127763
383,0,583.2141528
384,0,583.3005417
385,0,583.3869299
386,0,583.4733173
387,0,583.5597038
388,0,583.6460896
389,0,583.7324745
390,0,583.8188587
391,0,583.9052421
392,0,583.9916246
393,0,584.0780064
394,0,584.1643874
395,0,584.2507675
396,0,584.3371469
397,0,584.4235255
398,0,584.5099032
399,0,584.5962802
400,0,584.6826564
401,0,584.7690317
402,0,584.8554063
403,0,584.94178
404,0,585.028153
405,0,585.1145251
406,0,585.2008965
407,0,585.287267
408,0,585.3736368
409,0,585.4600057
410,0,585.5463738
411,0,585.6327412
412,0,585.7191077
413,0,585.8054734
414,0,585.8918384
415,0,585.9782025
416,0,586.0645658
417,0,586.1509283
418,0,586.23729
419,0,586.3236509
420,0,586.410011
421,0,586.4963703
422,0,586.5827288
423,0,586.6690865
424,0,586.7554434
425,0,586.8417995
426,0,586.9281547
427,0,587.0145092
428,0,587.1008628
429,0,587.1872157
430,0,587.2735677
431,0,587.359919
432,0,587.4462694
433,0,587.532619
434,0,587.6189678
435,0,587.7053158
436,0,587.791663
437,0,587.8780094
438,0,587.964355
439,0,588.0506998
440,0,588.1370438
441,0,588.2233869
442,0,588.3097293
443,0,588.3960708
444,0,588.4824116
445,0,588.5687515
446,0,588.6550906
447,0,588.7414289
448,0,588.8277664
449,0,588.9141031
450,0,589.000439
451,0,589.086774
452,0,589.1731083
453,0,589.2594417
454,0,589.3457744
455,0,589.4321062
456,0,589.5184372
457,0,589.6047674
458,0,589.6910968
459,0,589.7774254
460,0,589.8637532
461,0,589.9500801
462,0,590.0364063
463,0,590.1227316
464,0,590.2090561
465,0,590.2953798
466,0,590.3817027
467,0,590.4680248
468,0,590.5543461
469,0,590.6406665
470,0,590.7269862
471,0,590.813305
472,0,590.899623
473,0,590.9859402
474,0,591.0722566
475,0,591.1585722
476,0,591.244887
477,0,591.3312009
478,0,591.417514
479,0,591.5038264
480,0,591.5901379
481,0,591.6764485
482,0,591.7627584
483,0,591.8490675
484,0,591.9353757
485,0,592.0216831
486,0,592.1079897
487,0,592.1942955
488,0,592.2806005
489,0,592.3669047
490,0,592.453208
491,0,592.5395105
492,0,592.6258122
493,0,592.7121131
494,0,592.7984132
495,0,592.8847124
496,0,592.9710109
497,0,593.0573085
498,0,593.1436053
499,0,593.2299013
500,0,593.3161964
501,0,593.4024908
502,0,593.4887843
503,0,593.575077
504,0,593.6613689
505,0,593.74766
506,0,593.8339502
507,0,593.9202396
508,0,594.0065283
509,0,594.092816
510,0,594.179103
511,0,594.2653892
512,0,594.3516745
513,0,594.437959
514,0,594.5242427
515,0,594.6105255
516,0,594.6968076
517,0,594.7830888
518,0,594.8693692
519,0,594.9556488
520,0,595.0419275
521,0,595.1282055
522,0,595.2144826
523,0,595.3007589
524,0,595.3870343
525,0,595.473309
526,0,595.5595828
527,0,595.6458558
528,0,595.732128
529,0,595.8183993
530,0,595.9046698
531,0,595.9909395
532,0,596.0772084
533,0,596.1634765
534,0,596.2497437
535,0,596.3360101
536,0,596.4222757
537,0,596.5085404
538,0,596.5948044
539,0,596.6810675
540,0,596.7673298
541,0,596.8535912
542,0,596.9398518
543,0,597.0261116
544,0,597.1123706
545,0,597.1986288
546,0,597.2848861
547,0,597.3711426
548,0,597.4573983
549,0,597.5436531
550,0,597.6299071
551,0,597.7161603
552,0,597.8024127
553,0,597.8886642
554,0,597.9749149
555,0,598.0611648
556,0,598.1474138
557,0,598.2336621
558,0,598.3199094
559,0,598.406156
560,0,598.4924017
561,0,598.5786466
562,0,598.6648907
563,0,598.751134
564,0,598.8373764
565,0,598.923618
566,0,599.0098587
567,0,599.0960987
568,0,599.1823378
569,0,599.268576
570,0,599.3548135
571,0,599.4410501
572,0,599.5272858
573,0,599.6135208
574,0,599.6997549
575,0,599.7859882
576,0,599.8722206
577,0,599.9584522
578,88,600.044683
579,63,600.130913
580,52,600.2171421
581,73,600.3033704
582,81,600.3895978
583,83,600.4758245
584,70,600.5620502
585,77,600.6482752
586,77,600.7344993
587,70,600.8207226
588,61,600.9069451
589,74,600.9931667
590,81,601.0793875
591,72,601.1656074
592,83,601.2518266
593,92,601.3380448
594,76,601.4242623
595,89,601.5104789
596,103,601.5966947
597,89,601.6829096
598,90,601.7691237
599,111,601.855337
600,90,601.9415494
601,107,602.027761
602,129,602.1139718
603,105,602.2001817
604,131,602.2863908
605,122,602.3725991
606,136,602.4588065
607,129,602.5450131
608,150,602.6312188
609,158,602.7174237
610,171,602.8036278
611,179,602.889831
612,178,602.9760334
613,204,603.062235
614,220,603.1484357
615,208,603.2346356
616,210,603.3208346
617,225,603.4070328
618,191,603.4932302
619,191,603.5794267
620,203,603.6656224
621,197,603.7518172
622,210,603.8380113
623,204,603.9242044
624,203,604.0103967
625,188,604.0965882
626,210,604.1827789
627,205,604.2689687
628,175,604.3551577
629,215,604.4413458
630,213,604.5275331
631,229,604.6137195
632,226,604.6999051
633,240,604.7860899
634,248,604.8722738
635,244,604.9584569
636,243,605.0446391
637,245,605.1308205
638,289,605.217001
639,256,605.3031807
640,278,605.3893596
641,290,605.4755376
642,288,605.5617148
643,295,605.6478911
644,307,605.7340666
645,325,605.8202413
646,346,605.9064151
647,330,605.992588
648,348,606.0787602
649,347,606.1649314
650,354,606.2511019
651,353,606.3372715
652,354,606.4234402
653,405,606.5096081
654,393,606.5957751
655,389,606.6819413
656,418,606.7681067
657,384,606.8542712
658,431,606.9404349
659,409,607.0265977
660,423,607.1127597
661,436,607.1989208
662,477,607.2850811
663,450,607.3712405
664,456,607.4573991
665,480,607.5435569
666,465,607.6297137
667,517,607.7158698
668,499,607.802025
669,513,607.8881794
670,553,607.9743329
671,545,608.0604855
672,514,608.1466373
673,567,608.2327883
674,536,608.3189384
675,559,608.4050877
676,590,608.4912361
677,560,608.5773836
678,606,608.6635304
679,592,608.7496762
680,610,608.8358212
681,585,608.9219654
682,593,609.0081087
683,586,609.0942512
684,600,609.1803928
685,607,609.2665336
686,592,609.3526735
687,577,609.4388126
688,568,609.5249508
689,594,609.6110881
690,602,609.6972246
691,614,609.7833603
692,601,609.8694951
693,605,609.9556291
694,618,610.0417622
695,641,610.1278944
696,640,610.2140258
697,651,610.3001564
698,634,610.3862861
699,617,610.4724149
700,641,610.5585429
701,683,610.6446701
702,678,610.7307963
703,634,610.8169218
704,693,610.9030464
705,665,610.9891701
706,697,611.0752929
707,690,611.161415
708,655,611.2475361
709,733,611.3336564
710,717,611.4197759
711,719,611.5058945
712,731,611.5920122
713,756,611.6781291
714,796,611.7642451
715,799,611.8503603
716,755,611.9364746
717,799,612.0225881
718,828,612.1087007
719,863,612.1948125
720,828,612.2809234
721,853,612.3670334
722,896,612.4531426
723,881,612.5392509
724,918,612.6253584
725,904,612.711465
726,965,612.7975707
727,939,612.8836756
728,1028,612.9697797
729,1054,613.0558828
730,1141,613.1419852
731,1180,613.2280866
732,1231,613.3141872
733,1243,613.400287
734,1240,613.4863859
735,1233,613.5724839
736,1231,613.6585811
737,1181,613.7446774
738,1132,613.8307728
739,1107,613.9168674
740,1077,614.0029612
741,1062,614.089054
742,1035,614.175146
743,989,614.2612372
744,1005,614.3473275
745,990,614.4334169
746,990,614.5195055
747,1004,614.6055932
748,993,614.69168
749,952,614.777766
750,943,614.8638512
751,914,614.9499354
752,915,615.0360188
753,869,615.1221014
754,855,615.208183
755,793,615.2942639
756,798,615.3803438
757,794,615.4664229
758,764,615.5525011
759,685,615.6385785
760,672,615.724655
761,607,615.8107306
762,561,615.8968054
763,559,615.9828793
764,570,616.0689524
765,541,616.1550245
766,526,616.2410958
767,549,616.3271663
768,516,616.4132359
769,482,616.4993046
770,511,616.5853725
771,487,616.6714395
772,476,616.7575056
773,482,616.8435709
774,513,616.9296353
775,475,617.0156988
776,484,617.1017615
777,455,617.1878233
778,448,617.2738842
779,468,617.3599443
780,461,617.4460035
781,430,617.5320618
782,414,617.6181192
783,418,617.7041758
784,449,617.7902316
785,417,617.8762864
786,425,617.9623404
787,439,618.0483936
788,434,618.1344458
789,413,618.2204972
790,394,618.3065477
791,382,618.3925974
792,374,618.4786462
793,387,618.5646941
794,385,618.6507412
795,388,618.7367873
796,388,618.8228326
797,393,618.9088771
798,367,618.9949207
799,409,619.0809634
800,385,619.1670052
801,392,619.2530462
802,382,619.3390862
803,393,619.4251255
804,381,619.5111638
805,364,619.5972013
806,375,619.6832379
807,390,619.7692736
808,371,619.8553085
809,371,619.9413425
810,365,620.0273756
811,360,620.1134079
812,350,620.1994392
813,339,620.2854697
814,351,620.3714994
815,349,620.4575281
816,347,620.543556
817,406,620.629583
818,397,620.7156092
819,373,620.8016345
820,390,620.8876588
821,444,620.9736824
822,498,621.059705
823,473,621.1457268
824,434,621.2317477
825,375,621.3177677
826,254,621.4037869
827,213,621.4898051
828,133,621.5758225
829,101,621.6618391
830,72,621.7478547
831,57,621.8338695
832,32,621.9198834
833,18,622.0058964
834,0,622.0919086
835,0,622.1779198
836,0,622.2639302
837,0,622.3499398
838,0,622.4359484
839,0,622.5219562
840,0,622.6079631
841,0,622.6939691
842,0,622.7799742
843,0,622.8659785
844,0,622.9519818
845,0,623.0379843
846,0,623.123986
847,0,623.2099867
848,0,623.2959866
849,0,623.3819856
850,0,623.4679837
851,0,623.5539809
852,0,623.6399773
853,0,623.7259727
854,0,623.8119673
855,0,623.8979611
856,0,623.9839539
857,0,624.0699458
858,0,624.1559369
859,0,624.2419271
860,0,624.3279164
861,0,624.4139049
862,0,624.4998924
863,0,624.5858791
864,0,624.6718649
865,0,624.7578498
866,0,624.8438338
867,0,624.929817
868,0,625.0157993
869,0,625.1017806
870,0,625.1877612
871,0,625.2737408
872,0,625.3597195
873,0,625.4456974
874,0,625.5316743
875,0,625.6176504
876,0,625.7036257
877,0,625.7896
878,0,625.8755734
879,0,625.961546
880,0,626.0475177
881,0,626.1334884
882,0,626.2194584
883,0,626.3054274
884,0,626.3913955
885,0,626.4773628
886,0,626.5633291
887,0,626.6492946
888,0,626.7352592
889,0,626.8212229
890,0,626.9071858
891,0,626.9931477
892,0,627.0791088
893,0,627.1650689
894,0,627.2510282
895,0,627.3369866
896,0,627.4229441
897,0,627.5089008
898,0,627.5948565
899,0,627.6808114
900,0,627.7667653
901,0,627.8527184
902,0,627.9386706
903,0,628.0246219
904,0,628.1105723
905,0,628.1965219
906,0,628.2824705
907,0,628.3684182
908,0,628.4543651
909,0,628.5403111
910,0,628.6262562
911,0,628.7122004
912,0,628.7981437
913,0,628.8840861
914,0,628.9700276
915,0,629.0559683
916,0,629.141908
917,0,629.2278469
918,0,629.3137848
919,0,629.3997219
920,0,629.4856581
921,0,629.5715934
922,0,629.6575278
923,0,629.7434613
924,0,629.829394
925,0,629.9153257
926,0,630.0012565
927,0,630.0871865
928,0,630.1731156
929,0,630.2590437
930,0,630.344971
931,0,630.4308974
932,0,630.5168229
933,0,630.6027475
934,0,630.6886712
935,0,630.774594
936,0,630.8605159
937,0,630.9464369
938,0,631.0323571
939,0,631.1182763
940,0,631.2041947
941,0,631.2901121
942,0,631.3760287
943,0,631.4619443
944,0,631.5478591
945,0,631.633773
946,0,631.7196859
947,0,631.805598
948,0,631.8915092
949,0,631.9774195
950,0,632.0633289
951,0,632.1492374
952,0,632.235145
953,0,632.3210517
954,0,632.4069575
955,0,632.4928624
956,0,632.5787665
957,0,632.6646696
958,0,632.7505718
959,0,632.8364731
960,0,632.9223736
961,0,633.0082731
962,0,633.0941718
963,0,633.1800695
964,0,633.2659663
965,0,633.3518623
966,0,633.4377573
967,0,633.5236515
968,0,633.6095447
969,0,633.6954371
970,0,633.7813285
971,0,633.8672191
972,0,633.9531087
973,0,634.0389975
974,0,634.1248853
975,0,634.2107723
976,0,634.2966583
977,0,634.3825435
978,0,634.4684277
979,0,634.5543111
980,0,634.6401935
981,0,634.7260751
982,0,634.8119557
983,0,634.8978355
984,0,634.9837143
985,0,635.0695923
986,0,635.1554693
987,0,635.2413455
988,0,635.3272207
989,0,635.4130951
990,0,635.4989685
991,0,635.584841
992,0,635.6707127
993,0,635.7565834
994,0,635.8424532
995,0,635.9283221
996,0,636.0141902
997,0,636.1000573
998,0,636.1859235
999,0,636.2717888
1000,0,636.3576532
1001,0,636.4435167
1002,0,636.5293793
1003,0,636.615241
1004,0,636.7011018
1005,0,636.7869616
1006,0,636.8728206
1007,0,636.9586787
1008,0,637.0445359
1009,0,637.1303921
1010,0,637.2162475
1011,0,637.3021019
1012,0,637.3879555
1013,0,637.4738081
1014,0,637.5596598
1015,0,637.6455107
1016,0,637.7313606
1017,0,637.8172096
1018,0,637.9030577
1019,0,637.9889049
1020,0,638.0747512
1021,0,638.1605966
1022,0,638.246441
1023,0,638.3322846
1024,0,638.4181273
1025,0,638.503969
1026,0,638.5898098
1027,0,638.6756498
1028,0,638.7614888
1029,0,638.8473269
1030,0,638.9331641
1031,0,639.0190004
1032,0,639.1048358
1033,0,639.1906703
1034,0,639.2765038
1035,0,639.3623365
1036,0,639.4481683
1037,0,639.5339991
1038,0,639.619829
1039,0,639.705658
1040,0,639.7914861
1041,0,639.8773133
1042,0,639.9631396
1043,0,640.048965
1044,0,640.1347895
1045,0,640.220613
1046,0,640.3064356
1047,0,640.3922574
1048,0,640.4780782
1049,0,640.5638981
1050,0,640.6497171
1051,0,640.7355351
1052,0,640.8213523
1053,0,640.9071686
1054,0,640.9929839
1055,0,641.0787983
1056,0,641.1646118
1057,0,641.2504244
1058,0,641.3362361
1059,0,641.4220469
1060,0,641.5078567
1061,0,641.5936657
1062,0,641.6794737
1063,0,641.7652808
1064,0,641.851087
1065,0,641.9368923
1066,0,642.0226967
1067,0,642.1085001
1068,0,642.1943026
1069,0,642.2801043
1070,0,642.365905
1071,0,642.4517048
1072,0,642.5375036
1073,0,642.6233016
1074,0,642.7090986
1075,0,642.7948948
1076,0,642.88069
1077,0,642.9664842
1078,0,643.0522776
1079,0,643.1380701
1080,0,643.2238616
1081,0,643.3096522
1082,0,643.3954419
1083,0,643.4812307
1084,0,643.5670186
1085,0,643.6528055
1086,0,643.7385916
1087,0,643.8243767
1088,0,643.9101609
1089,0,643.9959441
1090,0,644.0817265
1091,0,644.1675079
1092,0,644.2532884
1093,0,644.339068
1094,0,644.4248467
1095,0,644.5106245
1096,0,644.5964013
1097,0,644.6821772
1098,0,644.7679522
1099,0,644.8537263
1100,0,644.9394994
1101,0,645.0252717
1102,0,645.111043
1103,0,645.1968134
1104,0,645.2825828
1105,0,645.3683514
1106,0,645.454119
1107,0,645.5398857
1108,0,645.6256515
1109,0,645.7114163
1110,0,645.7971803
1111,0,645.8829433
1112,0,645.9687054
1113,0,646.0544665
1114,0,646.1402268
1115,0,646.2259861
1116,0,646.3117445
1117,0,646.397502
1118,0,646.4832585
1119,0,646.5690141
1120,0,646.6547688
1121,0,646.7405226
1122,0,646.8262755
1123,0,646.9120274
1124,0,646.9977784
1125,0,647.0835285
1126,0,647.1692776
1127,0,647.2550258
1128,0,647.3407731
1129,0,647.4265195
1130,0,647.512265
1131,0,647.5980095
1132,0,647.6837531
1133,0,647.7694957
1134,0,647.8552375
1135,0,647.9409783
1136,0,648.0267182
1137,0,648.1124572
1138,0,648.1981952
1139,0,648.2839323
1140,0,648.3696685
1141,0,648.4554037
1142,0,648.5411381
1143,0,648.6268715
1144,0,648.7126039
1145,0,648.7983355
1146,0,648.8840661
1147,0,648.9697958
1148,0,649.0555245
1149,0,649.1412523
1150,0,649.2269792
1151,0,649.3127052
1152,0,649.3984302
1153,0,649.4841543
1154,0,649.5698775
1155,0,649.6555998
1156,0,649.7413211
1157,0,649.8270415
1158,0,649.9127609
1159,0,649.9984794
1160,0,650.084197
1161,0,650.1699137
1162,0,650.2556294
1163,0,650.3413442
1164,0,650.4270581
1165,0,650.512771
1166,0,650.598483
1167,0,650.6841941
1168,0,650.7699042
1169,0,650.8556135
1170,0,650.9413217
1171,0,651.0270291
1172,0,651.1127355
1173,0,651.198441
1174,0,651.2841455
1175,0,651.3698491
1176,0,651.4555518
1177,0,651.5412535
1178,0,651.6269543
1179,0,651.7126542
1180,0,651.7983531
1181,0,651.8840511
1182,0,651.9697482
1183,0,652.0554444
1184,0,652.1411396
1185,0,652.2268338
1186,0,652.3125272
1187,0,652.3982195
1188,0,652.483911
1189,0,652.5696015
1190,0,652.6552911
1191,0,652.7409798
1192,0,652.8266675
1193,0,652.9123543
1194,0,652.9980401
1195,0,653.083725
1196,0,653.169409
1197,0,653.255092
1198,0,653.3407741
1199,0,653.4264553
1200,0,653.5121355
1201,0,653.5978148
1202,0,653.6834931
1203,0,653.7691705
1204,0,653.854847
1205,0,653.9405225
1206,0,654.0261971
1207,0,654.1118707
1208,0,654.1975435
1209,0,654.2832152
1210,0,654.3688861
1211,0,654.454556
1212,0,654.5402249
1213,0,654.6258929
1214,0,654.71156
1215,0,654.7972261
1216,0,654.8828913
1217,0,654.9685556
1218,0,655.0542189
1219,0,655.1398813
1220,0,655.2255427
1221,0,655.3112032
1222,0,655.3968627
1223,0,655.4825213
1224,0,655.568179
1225,0,655.6538357
1226,0,655.7394915
1227,0,655.8251464
1228,0,655.9108002
1229,0,655.9964532
1230,0,656.0821052
1231,0,656.1677563
1232,0,656.2534064
1233,0,656.3390556
1234,0,656.4247038
1235,0,656.5103511
1236,0,656.5959975
1237,0,656.6816429
1238,0,656.7672874
1239,0,656.8529309
1240,0,656.9385735
1241,0,657.0242151
1242,0,657.1098558
1243,0,657.1954955
1244,0,657.2811343
1245,0,657.3667722
1246,0,657.4524091
1247,0,657.538045
1248,0,657.6236801
1249,0,657.7093141
1250,0,657.7949472
1251,0,657.8805794
1252,0,657.9662107
1253,0,658.0518409
1254,0,658.1374703
1255,0,658.2230987
1256,0,658.3087261
1257,0,658.3943526
1258,0,658.4799782
1259,0,658.5656028
1260,0,658.6512264
1261,0,658.7368491
1262,0,658.8224709
1263,0,658.9080917
1264,0,658.9937116
1265,0,659.0793305
1266,0,659.1649484
1267,0,659.2505655
1268,0,659.3361815
1269,0,659.4217966
1270,0,659.5074108
1271,0,659.593024
1272,0,659.6786363
1273,0,659.7642476
1274,0,659.849858
1275,0,659.9354674
1276,0,660.0210759
1277,0,660.1066834
1278,0,660.19229
1279,0,660.2778956
1280,0,660.3635003
1281,0,660.449104
1282,0,660.5347067
1283,0,660.6203086
1284,0,660.7059094
1285,0,660.7915093
1286,0,660.8771083
1287,0,660.9627063
1288,0,661.0483033
1289,0,661.1338994
1290,0,661.2194946
1291,0,661.3050888
1292,0,661.390682
1293,0,661.4762743
1294,0,661.5618657
1295,0,661.647456
1296,0,661.7330455
1297,0,661.8186339
1298,0,661.9042215
1299,0,661.989808
1300,0,662.0753936
1301,0,662.1609783
1302,0,662.246562
1303,0,662.3321447
1304,0,662.4177265
1305,0,662.5033074
1306,0,662.5888873
1307,0,662.6326692
1308,0,662.7190418
1309,0,662.8054136
1310,0,662.8917847
1311,0,662.978155
1312,0,663.0645245
1313,0,663.1508933
1314,0,663.2372613
1315,0,663.3236285
1316,0,663.4099949
1317,0,663.4963605
1318,0,663.5827254
1319,0,663.6690895
1320,0,663.7554528
1321,0,663.8418154
1322,0,663.9281771
1323,0,664.0145381
1324,0,664.1008984
1325,0,664.1872578
1326,0,664.2736165
1327,0,664.3599743
1328,0,664.4463315
1329,0,664.5326878
1330,0,664.6190433
1331,0,664.7053981
1332,0,664.7917521
1333,0,664.8781053
1334,0,664.9644578
1335,0,665.0508094
1336,0,665.1371603
1337,0,665.2235104
1338,0,665.3098597
1339,0,665.3962083
1340,0,665.4825561
1341,0,665.568903
1342,0,665.6552493
1343,0,665.7415947
1344,0,665.8279393
1345,0,665.9142832
1346,0,666.0006263
1347,0,666.0869686
1348,0,666.1733101
1349,0,666.2596509
1350,0,666.3459908
1351,0,666.43233
1352,0,666.5186684
1353,0,666.605006
1354,0,666.6913428
1355,0,666.7776789
1356,0,666.8640142
1357,0,666.9503487
1358,0,667.0366824
1359,0,667.1230153
1360,0,667.2093474
1361,0,667.2956788
1362,0,667.3820094
1363,0,667.4683392
1364,0,667.5546682
1365,0,667.6409964
1366,0,667.7273238
1367,0,667.8136505
1368,0,667.8999764
1369,0,667.9863014
1370,0,668.0726257
1371,0,668.1589493
1372,0,668.245272
1373,0,668.3315939
1374,0,668.4179151
1375,0,668.5042355
1376,0,668.5905551
1377,0,668.6768739
1378,0,668.7631919
1379,0,668.8495091
1380,0,668.9358256
1381,0,669.0221412
1382,0,669.1084561
1383,0,669.1947702
1384,0,669.2810835
1385,0,669.367396
1386,0,669.4537077
1387,0,669.5400186
1388,0,669.6263288
1389,0,669.7126381
1390,0,669.7989467
1391,0,669.8852545
1392,0,669.9715615
1393,0,670.0578677
1394,0,670.1441731
1395,0,670.2304777
1396,0,670.3167816
1397,0,670.4030846
1398,0,670.4893869
1399,0,670.5756883
1400,0,670.661989
1401,0,670.7482889
1402,0,670.834588
1403,0,670.9208863
1404,0,671.0071838
1405,0,671.0934806
1406,0,671.1797765
1407,0,671.2660716
1408,0,671.352366
1409,0,671.4386595
1410,0,671.5249523
1411,0,671.6112443
1412,0,671.6975355
1413,0,671.7838259
1414,0,671.8701155
1415,0,671.9564043
1416,0,672.0426923
1417,0,672.1289795
1418,0,672.215266
1419,0,672.3015516
1420,0,672.3878364
1421,0,672.4741205
1422,0,672.5604037
1423,0,672.6466862
1424,0,672.7329679
1425,0,672.8192487
1426,0,672.9055288
1427,0,672.9918081
1428,0,673.0780866
1429,0,673.1643643
1430,0,673.2506412
1431,0,673.3369173
1432,0,673.4231926
1433,0,673.5094671
1434,0,673.5957408
1435,0,673.6820138
1436,0,673.7682859
1437,0,673.8545572
1438,0,673.9408277
1439,0,674.0270975
1440,0,674.1133664
1441,0,674.1996345
1442,0,674.2859019
1443,0,674.3721684
1444,0,674.4584342
1445,0,674.5446991
1446,0,674.6309633
1447,0,674.7172266
1448,0,674.8034892
1449,0,674.889751
1450,0,674.9760119
1451,0,675.0622721
1452,0,675.1485314
1453,0,675.23479
1454,0,675.3210478
1455,0,675.4073047
1456,0,675.4935609
1457,0,675.5798163
1458,0,675.6660708
1459,0,675.7523246
1460,0,675.8385775
1461,0,675.9248297
1462,0,676.0110811
1463,0,676.0973316
1464,0,676.1835814
1465,0,676.2698303
1466,0,676.3560785
1467,0,676.4423259
1468,0,676.5285724
1469,0,676.6148182
1470,0,676.7010631
1471,0,676.7873073
1472,0,676.8735506
1473,0,676.9597931
1474,0,677.0460349
1475,0,677.1322758
1476,0,677.218516
1477,0,677.3047553
1478,0,677.3909938
1479,0,677.4772315
1480,0,677.5634685
1481,0,677.6497046
1482,0,677.7359399
1483,0,677.8221744
1484,0,677.9084081
1485,0,677.994641
1486,0,678.0808731
1487,0,678.1671044
1488,0,678.2533348
1489,0,678.3395645
1490,0,678.4257934
1491,0,678.5120214
1492,0,678.5982487
1493,0,678.6844752
1494,0,678.7707008
1495,0,678.8569256
1496,0,678.9431497
1497,0,679.0293729
1498,0,679.1155953
1499,0,679.2018169
1500,0,679.2880377
1501,0,679.3742577
1502,0,679.4604769
1503,0,679.5466953
1504,0,679.6329129
1505,0,679.7191296
1506,0,679.8053456
1507,0,679.8915607
1508,0,679.9777751
1509,0,680.0639886
1510,0,680.1502013
1511,0,680.2364132
1512,0,680.3226244
1513,0,680.4088346
1514,0,680.4950441
1515,0,680.5812528
1516,0,680.6674607
1517,0,680.7536677
1518,0,680.839874
1519,0,680.9260794
1520,0,681.012284
1521,0,681.0984878
1522,0,681.1846908
1523,0,681.270893
1524,0,681.3570944
1525,0,681.4432949
1526,0,681.5294947
1527,0,681.6156936
1528,0,681.7018918
1529,0,681.7880891
1530,0,681.8742856
1531,0,681.9604813
1532,0,682.0466762
1533,0,682.1328702
1534,0,682.2190635
1535,0,682.3052559
1536,0,682.3914475
1537,0,682.4776383
1538,0,682.5638283
1539,0,682.6500175
1540,0,682.7362059
1541,0,682.8223934
1542,0,682.9085802
1543,0,682.9947661
1544,0,683.0809512
1545,0,683.1671355
1546,0,683.253319
1547,0,683.3395016
1548,0,683.4256835
1549,0,683.5118645
1550,0,683.5980447
1551,0,683.6842241
1552,0,683.7704027
1553,0,683.8565805
1554,0,683.9427574
1555,0,684.0289336
1556,0,684.1151089
1557,0,684.2012834
1558,0,684.2874571
1559,0,684.3736299
1560,0,684.459802
1561,0,684.5459732
1562,0,684.6321436
1563,0,684.7183132
1564,0,684.804482
1565,0,684.8906499
1566,0,684.9768171
1567,0,685.0629834
1568,0,685.1491489
1569,0,685.2353136
1570,0,685.3214774
1571,0,685.4076404
1572,0,685.4938027
1573,0,685.5799641
1574,0,685.6661246
1575,0,685.7522844
1576,0,685.8384433
1577,0,685.9246015
1578,0,686.0107588
1579,0,686.0969152
1580,0,686.1830709
1581,0,686.2692257
1582,0,686.3553797
1583,0,686.4415329
1584,0,686.5276853
1585,0,686.6138368
1586,0,686.6999875
1587,0,686.7861374
1588,0,686.8722865
1589,0,686.9584348
1590,0,687.0445822
1591,0,687.1307288
1592,0,687.2168746
1593,0,687.3030196
1594,0,687.3891637
1595,0,687.475307
1596,0,687.5614495
1597,0,687.6475912
1598,0,687.733732
1599,0,687.819872
1600,0,687.9060112
1601,0,687.9921496
1602,0,688.0782871
1603,0,688.1644239
1604,0,688.2505598
1605,0,688.3366948
1606,0,688.4228291
1607,0,688.5089625
1608,0,688.5950951
1609,0,688.6812268
1610,0,688.7673578
1611,0,688.8534879
1612,0,688.9396172
1613,0,689.0257456
1614,0,689.1118732
1615,0,689.198
1616,0,689.284126
1617,0,689.3702512
1618,0,689.4563755
1619,0,689.542499
1620,0,689.6286216
1621,0,689.7147435
1622,0,689.8008645
1623,0,689.8869847
1624,0,689.973104
1625,0,690.0592225
1626,0,690.1453402
1627,0,690.2314571
1628,0,690.3175731
1629,0,690.4036883
1630,0,690.4898027
1631,0,690.5759162
1632,0,690.6620289
1633,0,690.7481408
1634,0,690.8342519
1635,0,690.9203621
1636,0,691.0064715
1637,0,691.09258
1638,0,691.1786878
1639,0,691.2647946
1640,0,691.3509007
1641,0,691.4370059
1642,0,691.5231103
1643,0,691.6092139
1644,0,691.6953166
1645,0,691.7814185
1646,0,691.8675196
1647,0,691.9536199
1648,0,692.0397193
1649,0,692.1258178
1650,0,692.2119156
1651,0,692.2980125
1652,0,692.3841085
1653,0,692.4702038
1654,0,692.5562982
1655,0,692.6423917
1656,0,692.7284845
1657,0,692.8145764
1658,0,692.9006674
1659,0,692.9867577
1660,0,693.0728471
1661,0,693.1589356
1662,0,693.2450234
1663,0,693.3311102
1664,0,693.4171963
1665,0,693.5032815
1666,0,693.5893659
1667,0,693.6754494
1668,0,693.7615321
1669,0,693.847614
1670,0,693.9336951
1671,0,694.0197753
1672,0,694.1058546
1673,0,694.1919331
1674,0,694.2780108
1675,0,694.3640877
1676,0,694.4501637
1677,0,694.5362389
1678,0,694.6223132
1679,0,694.7083867
1680,0,694.7944593
1681,0,694.8805312
1682,0,694.9666021
1683,0,695.0526723
1684,0,695.1387416
1685,0,695.22481
1686,0,695.3108777
1687,0,695.3969445
1688,0,695.4830104
1689,0,695.5690755
1690,0,695.6551398
1691,0,695.7412032
1692,0,695.8272658
1693,0,695.9133275
1694,0,695.9993884
1695,0,696.0854485
1696,0,696.1715077
1697,0,696.2575661
1698,0,696.3436236
1699,0,696.4296803
1700,0,696.5157361
1701,0,696.6017911
1702,0,696.6878453
1703,0,696.7738986
1704,0,696.8599511
1705,0,696.9460028
1706,0,697.0320536
1707,0,697.1181035
1708,0,697.2041526
1709,0,697.2902009
1710,0,697.3762483
1711,0,697.4622949
1712,0,697.5483406
1713,0,697.6343855
1714,0,697.7204296
1715,0,697.8064728
1716,0,697.8925151
1717,0,697.9785566
1718,0,698.0645973
1719,0,698.1506371
1720,0,698.2366761
1721,0,698.3227142
1722,0,698.4087515
1723,0,698.4947879
1724,0,698.5808235
1725,0,698.6668583
1726,0,698.7528922
1727,0,698.8389252
1728,0,698.9249574
1729,0,699.0109888
1730,0,699.0970193
1731,0,699.183049
1732,0,699.2690778
1733,0,699.3551058
1734,0,699.4411329
1735,0,699.5271592
1736,0,699.6131846
1737,0,699.6992092
1738,0,699.7852329
1739,0,699.8712558
1740,0,699.9572778
1741,0,700.043299
1742,0,700.1293193
1743,0,700.2153388
1744,0,700.3013574
1745,0,700.3873752
1746,0,700.4733922
1747,0,700.5594082
1748,0,700.6454235
1749,0,700.7314379
1750,0,700.8174514
1751,0,700.9034641
1752,0,700.9894759
1753,0,701.0754869
1754,0,701.161497
1755,0,701.2475063
1756,0,701.3335147
1757,0,701.4195223
1758,0,701.505529
1759,0,701.5915349
1760,0,701.6775399
1761,0,701.7635441
1762,0,701.8495474
1763,0,701.9355499
1764,0,702.0215515
1765,0,702.1075522
1766,0,702.1935521
1767,0,702.2795512
1768,0,702.3655494
1769,0,702.4515467
1770,0,702.5375432
1771,0,702.6235388
1772,0,702.7095336
1773,0,702.7955275
1774,0,702.8815206
1775,0,702.9675128
1776,0,703.0535042
1777,0,703.1394947
1778,0,703.2254843
1779,0,703.3114731
1780,0,703.397461
1781,0,703.4834481
1782,0,703.5694344
1783,0,703.6554197
1784,0,703.7414042
1785,0,703.8273879
1786,0,703.9133707
1787,0,703.9993526
1788,0,704.0853337
1789,0,704.1713139
1790,0,704.2572933
1791,0,704.3432718
1792,0,704.4292495
1793,0,704.5152263
1794,0,704.6012022
1795,0,704.6871773
1796,0,704.7731515
1797,0,704.8591249
1798,0,704.9450974
1799,0,705.031069
1800,0,705.1170398
1801,0,705.2030098
1802,0,705.2889788
1803,0,705.374947
1804,0,705.4609144
1805,0,705.5468809
1806,0,705.6328465
1807,0,705.7188113
1808,0,705.8047752
1809,0,705.8907382
1810,0,705.9767004
1811,0,706.0626617
1812,0,706.1486222
1813,0,706.2345818
1814,0,706.3205405
1815,0,706.4064984
1816,0,706.4924554
1817,0,706.5784116
1818,0,706.6643669
1819,0,706.7503213
1820,0,706.8362749
1821,0,706.9222276
1822,0,707.0081794
1823,0,707.0941304
1824,0,707.1800805
1825,0,707.2660298
1826,0,707.3519782
1827,0,707.4379257
1828,0,707.5238723
1829,0,707.6098181
1830,0,707.6957631
1831,0,707.7817071
1832,0,707.8676503
1833,0,707.9535927
1834,0,708.0395342
1835,0,708.1254748
1836,0,708.2114145
1837,0,708.2973534
1838,0,708.3832914
1839,0,708.4692285
1840,0,708.5551648
1841,0,708.6411002
1842,0,708.7270348
1843,0,708.8129685
1844,0,708.8989013
1845,0,708.9848332
1846,0,709.0707643
1847,0,709.1566945
1848,0,709.2426239
1849,0,709.3285524
1850,0,709.41448
1851,0,709.5004067
1852,0,709.5863326
1853,0,709.6722576
1854,0,709.7581817
1855,0,709.844105
1856,0,709.9300274
1857,0,710.0159489
1858,0,710.1018696
1859,0,710.1877894
1860,0,710.2737083
1861,0,710.3596264
1862,0,710.4455435
1863,0,710.5314599
1864,0,710.6173753
1865,0,710.7032899
1866,0,710.7892036
1867,0,710.8751164
1868,0,710.9610284
1869,0,711.0469395
1870,0,711.1328497
1871,0,711.218759
1872,0,711.3046675
1873,0,711.3905751
1874,0,711.4764819
1875,0,711.5623877
1876,0,711.6482927
1877,0,711.7341968
1878,0,711.8201001
1879,0,711.9060025
1880,0,711.991904
1881,0,712.0778046
1882,0,712.1637043
1883,0,712.2496032
1884,0,712.3355012
1885,0,712.4213984
1886,0,712.5072946
1887,0,712.59319
1888,0,712.6790845
1889,0,712.7649781
1890,0,712.8508709
1891,0,712.9367628
1892,0,713.0226538
1893,0,713.1085439
1894,0,713.1944332
1895,0,713.2803216
1896,0,713.3662091
1897,0,713.4520957
1898,0,713.5379815
1899,0,713.6238664
1900,0,713.7097504
1901,0,713.7956335
1902,0,713.8815158
1903,0,713.9673972
1904,0,714.0532777
1905,0,714.1391573
1906,0,714.225036
1907,0,714.3109139
1908,0,714.3967909
1909,0,714.482667
1910,0,714.5685422
1911,0,714.6544166
1912,0,714.7402901
1913,0,714.8261627
1914,0,714.9120344
1915,0,714.9979052
1916,0,715.0837752
1917,0,715.1696443
1918,0,715.2555125
1919,0,715.3413798
1920,0,715.4272463
1921,0,715.5131118
1922,0,715.5989765
1923,0,715.6848403
1924,0,715.7707032
1925,0,715.8565653
1926,0,715.9424264
1927,0,716.0282867
1928,0,716.1141461
1929,0,716.2000047
1930,0,716.2858623
1931,0,716.371719
1932,0,716.4575749
1933,0,716.5434299
1934,0,716.629284
1935,0,716.7151373
1936,0,716.8009896
1937,0,716.8868411
1938,0,716.9726917
1939,0,717.0585414
1940,0,717.1443902
1941,0,717.2302381
1942,0,717.3160852
1943,0,717.4019313
1944,0,717.4877766
1945,0,717.573621
1946,0,717.6594645
1947,0,717.7453072
1948,0,717.8311489
1949,0,717.9169898
1950,0,718.0028297
1951,0,718.0886688
1952,0,718.174507
1953,0,718.2603444
1954,0,718.3461808
1955,0,718.4320163
1956,0,718.517851
1957,0,718.6036848
1958,0,718.6895177
1959,0,718.7753497
1960,0,718.8611808
1961,0,718.947011
1962,0,719.0328404
1963,0,719.1186688
1964,0,719.2044964
1965,0,719.2903231
1966,0,719.3761489
1967,0,719.4619738
1968,0,719.5477978
1969,0,719.6336209
1970,0,719.7194432
1971,0,719.8052645
1972,0,719.891085
1973,0,719.9769046
1974,0,720.0627233
1975,0,720.1485411
1976,0,720.234358
1977,0,720.320174
1978,0,720.4059892
1979,0,720.4918034
1980,0,720.5776168
1981,0,720.6634292
1982,0,720.7492408
1983,0,720.8350515
1984,0,720.9208613
1985,0,721.0066702
1986,0,721.0924782
1987,0,721.1782853
1988,0,721.2640915
1989,0,721.3498969
1990,0,721.4357013
1991,0,721.5215049
1992,0,721.6073075
1993,0,721.6931093
1994,0,721.7789102
1995,0,721.8647101
1996,0,721.9505092
1997,0,722.0363074
1998,0,722.1221047
1999,0,722.2079012
2000,0,722.2936967
2001,0,722.3794913
2002,0,722.465285
2003,0,722.5510779
2004,0,722.6368698
2005,0,722.7226609
2006,0,722.808451
2007,0,722.8942403
2008,0,722.9800287
2009,0,723.0658161
2010,0,723.1516027
2011,0,723.2373884
2012,0,723.3231732
2013,0,723.4089571
2014,0,723.4947401
2015,0,723.5805222
2016,0,723.6663034
2017,0,723.7520837
2018,0,723.8378631
2019,0,723.9236416
2020,0,724.0094192
2021,0,724.0951959
2022,0,724.1809718
2023,0,724.2667467
2024,0,724.3525207
2025,0,724.4382938
2026,0,724.5240661
2027,0,724.6098374
2028,0,724.6956079
2029,0,724.7813774
2030,0,724.867146
2031,0,724.9529138
2032,0,725.0386806
2033,0,725.1244466
2034,0,725.2102116
2035,0,725.2959758
2036,0,725.381739
2037,0,725.4675014
2038,0,725.5532628
2039,0,725.6390234
2040,0,725.724783
2041,0,725.8105418
2042,0,725.8962996
2043,0,725.9820565
2044,0,726.0678126
2045,0,726.1535677
2046,0,726.239322
2047,0,726.3250753
2048,0,726.4108278
2049,0,726.4965793
2050,0,726.5823299
2051,0,726.6680797
2052,0,726.7538285
2053,0,726.8395764
2054,0,726.9253235
2055,0,727.0110696
2056,0,727.0968148
2057,0,727.1825591
2058,0,727.2683026
2059,0,727.3540451
2060,0,727.4397867
2061,0,727.5255274
2062,0,727.6112672
2063,0,727.6970061
2064,0,727.7827441
2065,0,727.8684812
2066,0,727.9542174
2067,0,728.0399527
2068,0,728.125687
2069,0,728.2114205
2070,0,728.2971531
2071,0,728.3828847
2072,0,728.4686155
2073,0,728.5543453
2074,0,728.6400743
2075,0,728.7258023
2076,0,728.8115294
2077,0,728.8972557
2078,0,728.982981
2079,0,729.0687054
2080,0,729.1544289
2081,0,729.2401515
2082,0,729.3258732
2083,0,729.411594
2084,0,729.4973139
2085,0,729.5830328
2086,0,729.6687509
2087,0,729.754468
2088,0,729.8401843
2089,0,729.9258996
2090,0,730.0116141
2091,0,730.0973276
2092,0,730.1830402
2093,0,730.2687519
2094,0,730.3544627
2095,0,730.4401726
2096,0,730.5258815
2097,0,730.6115896
2098,0,730.6972967
2099,0,730.783003
2100,0,730.8687083
2101,0,730.9544127
2102,0,731.0401162
2103,0,731.1258188
2104,0,731.2115205
2105,0,731.2972213
2106,0,731.3829212
2107,0,731.4686201
2108,0,731.5543182
2109,0,731.6400153
2110,0,731.7257115
2111,0,731.8114068
2112,0,731.8971012
2113,0,731.9827947
2114,0,732.0684873
2115,0,732.154179
2116,0,732.2398697
2117,0,732.3255595
2118,0,732.4112484
2119,0,732.4969365
2120,0,732.5826235
2121,0,732.6683097
2122,0,732.753995
2123,0,732.8396793
2124,0,732.9253628
2125,0,733.0110453
2126,0,733.0967269
2127,0,733.1824076
2128,0,733.2680874
2129,0,733.3537662
2130,0,733.4394442
2131,0,733.5251212
2132,0,733.6107973
2133,0,733.6964725
2134,0,733.7821468
2135,0,733.8678202
2136,0,733.9534926
2137,0,734.0391642
2138,0,734.1248348
2139,0,734.2105045
2140,0,734.2961733
2141,0,734.3818411
2142,0,734.4675081
2143,0,734.5531741
2144,0,734.6388392
2145,0,734.7245034
2146,0,734.8101667
2147,0,734.895829
2148,0,734.9814905
2149,0,735.067151
2150,0,735.1528106
2151,0,735.2384693
2152,0,735.3241271
2153,0,735.4097839
2154,0,735.4954398
2155,0,735.5810948
2156,0,735.6667489
2157,0,735.7524021
2158,0,735.8380543
2159,0,735.9237057
2160,0,736.0093561
2161,0,736.0950056
2162,0,736.1806541
2163,0,736.2663018
2164,0,736.3519485
2165,0,736.4375943
2166,0,736.5232392
2167,0,736.6088831
2168,0,736.6945262
2169,0,736.7801683
2170,0,736.8658095
2171,0,736.9514498
2172,0,737.0370891
2173,0,737.1227275
2174,0,737.208365
2175,0,737.2940016
2176,0,737.3796373
2177,0,737.465272
2178,0,737.5509058
2179,0,737.6365387
2180,0,737.7221707
2181,0,737.8078017
2182,0,737.8934318
2183,0,737.979061
2184,0,738.0646893
2185,0,738.1503166
2186,0,738.2359431
2187,0,738.3215686
2188,0,738.4071931
2189,0,738.4928168
2190,0,738.5784395
2191,0,738.6640613
2192,0,738.7496821
2193,0,738.8353021
2194,0,738.9209211
2195,0,739.0065392
2196,0,739.0921563
2197,0,739.1777726
2198,0,739.2633879
2199,0,739.3490023
2200,0,739.4346157
2201,0,739.5202282
2202,0,739.6058398
2203,0,739.6914505
2204,0,739.7770602
2205,0,739.8626691
2206,0,739.9482769
2207,0,740.0338839
2208,0,740.1194899
2209,0,740.205095
2210,0,740.2906992
2211,0,740.3763025
2212,0,740.4619048
2213,0,740.5475062
2214,0,740.6331066
2215,0,740.7187061
2216,0,740.8043047
2217,0,740.8899024
2218,0,740.9754991
2219,0,741.0610949
2220,0,741.1466898
2221,0,741.2322838
2222,0,741.3178768
2223,0,741.4034689
2224,0,741.48906
2225,0,741.5746502
2226,0,741.6602395
2227,0,741.7458279
2228,0,741.8314153
2229,0,741.9170018
2230,0,742.0025873
2231,0,742.088172
2232,0,742.1737557
2233,0,742.2593384
2234,0,742.3449203
2235,0,742.4305012
2236,0,742.5160811
2237,0,742.6016602
2238,0,742.6872383
2239,0,742.7728154
2240,0,742.8583916
2241,0,742.9439669
2242,0,743.0295413
2243,0,743.1151147
2244,0,743.2006872
2245,0,743.2862588
2246,0,743.3718294
2247,0,743.4573991
2248,0,743.5429678
2249,0,743.6285357
2250,0,743.7141025
2251,0,743.7996685
2252,0,743.8852335
2253,0,743.9707976
2254,0,744.0563607
2255,0,744.1419229
2256,0,744.2274842
2257,0,744.3130445
2258,0,744.3986039
2259,0,744.4841623
2260,0,744.5697199
2261,0,744.6552764
2262,0,744.7408321
2263,0,744.8263868
2264,0,744.9119406
2265,0,744.9974934
2266,0,745.0830453
2267,0,745.1685962
2268,0,745.2541462
2269,0,745.3396953
2270,0,745.4252434
2271,0,745.5107906
2272,0,745.5963369
2273,0,745.6818822
2274,0,745.7674266
2275,0,745.85297
2276,0,745.9385125
2277,0,746.0240541
2278,0,746.1095947
2279,0,746.1951344
2280,0,746.2806731
2281,0,746.3662109
2282,0,746.4517478
2283,0,746.5372837
2284,0,746.6228187
2285,0,746.7083527
2286,0,746.7938858
2287,0,746.8794179
2288,0,746.9649491
2289,0,747.0504794
2290,0,747.1360087
2291,0,747.2215371
2292,0,747.3070645
2293,0,747.392591
2294,0,747.4781166
2295,0,747.5636412
2296,0,747.6491648
2297,0,747.7346876
2298,0,747.8202093
2299,0,747.9057302
2300,0,747.9912501
2301,0,748.076769
2302,0,748.162287
2303,0,748.2478041
2304,0,748.3333202
2305,0,748.4188354
2306,0,748.5043496
2307,0,748.5898629
2308,0,748.6753752
2309,0,748.7608866
2310,0,748.846397
2311,0,748.9319065
2312,0,749.0174151
2313,0,749.1029227
2314,0,749.1884293
2315,0,749.273935
2316,0,749.3594398
2317,0,749.4449436
2318,0,749.5304465
2319,0,749.6159484
2320,0,749.7014494
2321,0,749.7869494
2322,0,749.8724485
2323,0,749.9579466
2324,0,750.0434438
2325,0,750.12894
2326,0,750.2144353
2327,0,750.2999297
2328,0,750.3854231
2329,0,750.4709155
2330,0,750.556407
2331,0,750.6418976
2332,0,750.7273871
2333,0,750.8128758
2334,0,750.8983635
2335,0,750.9838502
2336,0,751.069336
2337,0,751.1548209
2338,0,751.2403048
2339,0,751.3257877
2340,0,751.4112697
2341,0,751.4967508
2342,0,751.5822309
2343,0,751.66771
2344,0,751.7531882
2345,0,751.8386654
2346,0,751.9241417
2347,0,752.009617
2348,0,752.0950914
2349,0,752.1805649
2350,0,752.2660373
2351,0,752.3515089
2352,0,752.4369794
2353,0,752.5224491
2354,0,752.6079177
2355,0,752.6933855
2356,0,752.7788522
2357,0,752.864318
2358,0,752.9497829
2359,0,753.0352468
2360,0,753.1207097
2361,0,753.2061717
2362,0,753.2916328
2363,0,753.3770928
2364,0,753.462552
2365,0,753.5480101
2366,0,753.6334674
2367,0,753.7189236
2368,0,753.8043789
2369,0,753.8898333
2370,0,753.9752867
2371,0,754.0607391
2372,0,754.1461906
2373,0,754.2316411
2374,0,754.3170907
2375,0,754.4025393
2376,0,754.487987
2377,0,754.5734337
2378,0,754.6588795
2379,0,754.7443242
2380,0,754.8297681
2381,0,754.915211
2382,0,755.0006529
2383,0,755.0860938
2384,0,755.1715338
2385,0,755.2569729
2386,0,755.342411
2387,0,755.4278481
2388,0,755.5132843
2389,0,755.5987195
2390,0,755.6841537
2391,0,755.769587
2392,0,755.8550193
2393,0,755.9404507
2394,0,756.0258811
2395,0,756.1113106
2396,0,756.1967391
2397,0,756.2821666
2398,0,756.3675932
2399,0,756.4530188
2400,0,756.5384434
2401,0,756.6238671
2402,0,756.7092899
2403,0,756.7947116
2404,0,756.8801324
2405,0,756.9655523
2406,0,757.0509712
2407,0,757.1363891
2408,0,757.221806
2409,0,757.307222
2410,0,757.3926371
2411,0,757.4780511
2412,0,757.5634643
2413,0,757.6488764
2414,0,757.7342876
2415,0,757.8196978
2416,0,757.9051071
2417,0,757.9905154
2418,0,758.0759227
2419,0,758.1613291
2420,0,758.2467345
2421,0,758.3321389
2422,0,758.4175424
2423,0,758.5029449
2424,0,758.5883464
2425,0,758.673747
2426,0,758.7591466
2427,0,758.8445453
2428,0,758.929943
2429,0,759.0153397
2430,0,759.1007354
2431,0,759.1861302
2432,0,759.271524
2433,0,759.3569169
2434,0,759.4423088
2435,0,759.5276997
2436,0,759.6130897
2437,0,759.6984787
2438,0,759.7838667
2439,0,759.8692537
2440,0,759.9546398
2441,0,760.0400249
2442,0,760.1254091
2443,0,760.2107923
2444,0,760.2961745
2445,0,760.3815558
2446,0,760.466936
2447,0,760.5523153
2448,0,760.6376937
2449,0,760.7230711
2450,0,760.8084475
2451,0,760.8938229
2452,0,760.9791974
2453,0,761.0645709
2454,0,761.1499434
2455,0,761.235315
2456,0,761.3206856
2457,0,761.4060552
2458,0,761.4914238
2459,0,761.5767915
2460,0,761.6621582
2461,0,761.7475239
2462,0,761.8328887
2463,0,761.9182525
2464,0,762.0036153
2465,0,762.0889772
2466,0,762.1743381
2467,0,762.259698
2468,0,762.3450569
2469,0,762.4304149
2470,0,762.5157719
2471,0,762.6011279
2472,0,762.6864829
2473,0,762.771837
2474,0,762.8571901
2475,0,762.9425422
2476,0,763.0278934
2477,0,763.1132436
2478,0,763.1985928
2479,0,763.283941
2480,0,763.3692883
2481,0,763.4546345
2482,0,763.5399799
2483,0,763.6253242
2484,0,763.7106675
2485,0,763.7960099
2486,0,763.8813513
2487,0,763.9666918
2488,0,764.0520312
2489,0,764.1373697
2490,0,764.2227072
2491,0,764.3080438
2492,0,764.3933793
2493,0,764.4787139
2494,0,764.5640475
2495,0,764.6493802
2496,0,764.7347118
2497,0,764.8200425
2498,0,764.9053722
2499,0,764.9907009
2500,0,765.0760287
2501,0,765.1613554
2502,0,765.2466812
2503,0,765.332006
2504,0,765.4173299
2505,0,765.5026527
2506,0,765.5879746
2507,0,765.6732955
2508,0,765.7586154
2509,0,765.8439344
2510,0,765.9292523
2511,0,766.0145693
2512,0,766.0998853
2513,0,766.1852003
2514,0,766.2705144
2515,0,766.3558274
2516,0,766.4411395
2517,0,766.5264506
2518,0,766.6117608
2519,0,766.6970699
2520,0,766.7823781
2521,0,766.8676853
2522,0,766.9529915
2523,0,767.0382967
2524,0,767.1236009
2525,0,767.2089042
2526,0,767.2942065
2527,0,767.3795078
2528,0,767.4648081
2529,0,767.5501074
2530,0,767.6354058
2531,0,767.7207031
2532,0,767.8059995
2533,0,767.8912949
2534,0,767.9765893
2535,0,768.0618828
2536,0,768.1471752
2537,0,768.2324667
2538,0,768.3177572
2539,0,768.4030467
2540,0,768.4883352
2541,0,768.5736227
2542,0,768.6589093
2543,0,768.7441948
2544,0,768.8294794
2545,0,768.914763
2546,0,769.0000456
2547,0,769.0853273
2548,0,769.1706079
2549,0,769.2558875
2550,0,769.3411662
2551,0,769.4264439
2552,0,769.5117206
2553,0,769.5969963
2554,0,769.682271
2555,0,769.7675448
2556,0,769.8528175
2557,0,769.9380893
2558,0,770.0233601
2559,0,770.1086299
2560,0,770.1938987
2561,0,770.2791665
2562,0,770.3644333
2563,0,770.4496992
2564,0,770.534964
2565,0,770.6202279
2566,0,770.7054908
2567,0,770.7907526
2568,0,770.8760136
2569,0,770.9612735
2570,0,771.0465324
2571,0,771.1317903
2572,0,771.2170473
2573,0,771.3023032
2574,0,771.3875582
2575,0,771.4728122
2576,0,771.5580652
2577,0,771.6433172
2578,0,771.7285682
2579,0,771.8138182
2580,0,771.8990672
2581,0,771.9843152
2582,0,772.0695623
2583,0,772.1548083
2584,0,772.157478
2585,0,772.2433085
2586,0,772.3291381
2587,0,772.4149669
2588,0,772.5007947
2589,0,772.5866217
2590,0,772.6724479
2591,0,772.7582732
2592,0,772.8440976
2593,0,772.9299211
2594,0,773.0157438
2595,0,773.1015656
2596,0,773.1873865
2597,0,773.2732065
2598,0,773.3590257
2599,0,773.444844
2600,0,773.5306615
2601,0,773.6164781
2602,0,773.7022938
2603,0,773.7881086
2604,0,773.8739225
2605,0,773.9597356
2606,0,774.0455479
2607,0,774.1313592
2608,0,774.2171697
2609,0,774.3029793
2610,0,774.388788
2611,0,774.4745959
2612,0,774.5604029
2613,0,774.646209
2614,0,774.7320142
2615,0,774.8178186
2616,0,774.9036221
2617,0,774.9894247
2618,0,775.0752264
2619,0,775.1610273
2620,0,775.2468273
2621,0,775.3326264
2622,0,775.4184247
2623,0,775.5042221
2624,0,775.5900186
2625,0,775.6758142
2626,0,775.7616089
2627,0,775.8474028
2628,0,775.9331958
2629,0,776.0189879
2630,0,776.1047792
2631,0,776.1905696
2632,0,776.2763591
2633,0,776.3621477
2634,0,776.4479354
2635,0,776.5337223
2636,0,776.6195083
2637,0,776.7052934
2638,0,776.7910776
2639,0,776.876861
2640,0,776.9626435
2641,0,777.0484251
2642,0,777.1342058
2643,0,777.2199857
2644,0,777.3057647
2645,0,777.3915428
2646,0,777.47732
2647,0,777.5630963
2648,0,777.6488718
2649,0,777.7346463
2650,0,777.8204201
2651,0,777.9061929
2652,0,777.9919648
2653,0,778.0777359
2654,0,778.1635061
2655,0,778.2492754
2656,0,778.3350438
2657,0,778.4208113
2658,0,778.506578
2659,0,778.5923438
2660,0,778.6781087
2661,0,778.7638727
2662,0,778.8496359
2663,0,778.9353981
2664,0,779.0211595
2665,0,779.10692
2666,0,779.1926796
2667,0,779.2784383
2668,0,779.3641962
2669,0,779.4499532
2670,0,779.5357092
2671,0,779.6214644
2672,0,779.7072188
2673,0,779.7929722
2674,0,779.8787248
2675,0,779.9644764
2676,0,780.0502272
2677,0,780.1359771
2678,0,780.2217261
2679,0,780.3074743
2680,0,780.3932215
2681,0,780.4789679
2682,0,780.5647134
2683,0,780.650458
2684,0,780.7362017
2685,0,780.8219445
2686,0,780.9076865
2687,0,780.9934275
2688,0,781.0791677
2689,0,781.164907
2690,0,781.2506454
2691,0,781.3363829
2692,0,781.4221195
2693,0,781.5078553
2694,0,781.5935901
2695,0,781.6793241
2696,0,781.7650572
2697,0,781.8507894
2698,0,781.9365207
2699,0,782.0222511
2700,0,782.1079806
2701,0,782.1937093
2702,0,782.279437
2703,0,782.3651639
2704,0,782.4508899
2705,0,782.536615
2706,0,782.6223392
2707,0,782.7080625
2708,0,782.7937849
2709,0,782.8795064
2710,0,782.9652271
2711,0,783.0509469
2712,0,783.1366657
2713,0,783.2223837
2714,0,783.3081008
2715,0,783.393817
2716,0,783.4795323
2717,0,783.5652467
2718,0,783.6509602
2719,0,783.7366729
2720,0,783.8223846
2721,0,783.9080955
2722,0,783.9938054
2723,0,784.0795145
2724,0,784.1652227
2725,0,784.25093
2726,0,784.3366364
2727,0,784.4223419
2728,0,784.5080465
2729,0,784.5937502
2730,0,784.679453
2731,0,784.765155
2732,0,784.850856
2733,0,784.9365562
2734,0,785.0222554
2735,0,785.1079538
2736,0,785.1936512
2737,0,785.2793478
2738,0,785.3650435
2739,0,785.4507383
2740,0,785.5364322
2741,0,785.6221252
2742,0,785.7078173
2743,0,785.7935085
2744,0,785.8791988
2745,0,785.9648882
2746,0,786.0505767
2747,0,786.1362643
2748,0,786.2219511
2749,0,786.3076369
2750,0,786.3933218
2751,0,786.4790059
2752,0,786.564689
2753,0,786.6503713
2754,0,786.7360526
2755,0,786.8217331
2756,0,786.9074126
2757,0,786.9930913
2758,0,787.0787691
2759,0,787.1644459
2760,0,787.2501219
2761,0,787.335797
2762,0,787.4214711
2763,0,787.5071444
2764,0,787.5928168
2765,0,787.6784883
2766,0,787.7641588
2767,0,787.8498285
2768,0,787.9354973
2769,0,788.0211652
2770,0,788.1068321
2771,0,788.1924982
2772,0,788.2781634
2773,0,788.3638277
2774,0,788.4494911
2775,0,788.5351535
2776,0,788.6208151
2777,0,788.7064758
2778,0,788.7921356
2779,0,788.8777944
2780,0,788.9634524
2781,0,789.0491095
2782,0,789.1347657
2783,0,789.2204209
2784,0,789.3060753
2785,0,789.3917288
2786,0,789.4773813
2787,0,789.563033
2788,0,789.6486838
2789,0,789.7343336
2790,0,789.8199826
2791,0,789.9056306
2792,0,789.9912778
2793,0,790.076924
2794,0,790.1625694
2795,0,790.2482138
2796,0,790.3338573
2797,0,790.4195
2798,0,790.5051417
2799,0,790.5907825
2800,0,790.6764224
2801,0,790.7620614
2802,0,790.8476995
2803,0,790.9333367
2804,0,791.018973
2805,0,791.1046084
2806,0,791.1902429
2807,0,791.2758765
2808,0,791.3615092
2809,0,791.4471409
2810,0,791.5327718
2811,0,791.6184017
2812,0,791.7040308
2813,0,791.7896589
2814,0,791.8752862
2815,0,791.9609125
2816,0,792.0465379
2817,0,792.1321624
2818,0,792.217786
2819,0,792.3034087
2820,0,792.3890305
2821,0,792.4746514
2822,0,792.5602713
2823,0,792.6458904
2824,0,792.7315086
2825,0,792.8171258
2826,0,792.9027421
2827,0,792.9883576
2828,0,793.0739721
2829,0,793.1595857
2830,0,793.2451984
2831,0,793.3308102
2832,0,793.4164211
2833,0,793.502031
2834,0,793.5876401
2835,0,793.6732482
2836,0,793.7588555
2837,0,793.8444618
2838,0,793.9300672
2839,0,794.0156717
2840,0,794.1012753
2841,0,794.186878
2842,0,794.2724798
2843,0,794.3580806
2844,0,794.4436806
2845,0,794.5292796
2846,0,794.6148777
2847,0,794.7004749
2848,0,794.7860712
2849,0,794.8716666
2850,0,794.9572611
2851,0,795.0428546
2852,0,795.1284473
2853,0,795.214039
2854,0,795.2996298
2855,0,795.3852197
2856,0,795.4708087
2857,0,795.5563968
2858,0,795.6419839
2859,0,795.7275702
2860,0,795.8131555
2861,0,795.8987399
2862,0,795.9843234
2863,0,796.069906
2864,0,796.1554877
2865,0,796.2410684
2866,0,796.3266483
2867,0,796.4122272
2868,0,796.4978052
2869,0,796.5833823
2870,0,796.6689585
2871,0,796.7545337
2872,0,796.8401081
2873,0,796.9256815
2874,0,797.011254
2875,0,797.0968256
2876,0,797.1823962
2877,0,797.267966
2878,0,797.3535348
2879,0,797.4391028
2880,0,797.5246698
2881,0,797.6102358
2882,0,797.695801
2883,0,797.7813652
2884,0,797.8669286
2885,0,797.952491
2886,0,798.0380525
2887,0,798.123613
2888,0,798.2091727
2889,0,798.2947314
2890,0,798.3802892
2891,0,798.4658461
2892,0,798.5514021
2893,0,798.6369571
2894,0,798.7225112
2895,0,798.8080644
2896,0,798.8936167
2897,0,798.9791681
2898,0,799.0647185
2899,0,799.1502681
2900,0,799.2358167
2901,0,799.3213643
2902,0,799.4069111
2903,0,799.4924569
2904,0,799.5780018
2905,0,799.6635458
2906,0,799.7490889
2907,0,799.834631
2908,0,799.9201723
2909,0,800.0057126
2910,0,800.0912519
2911,0,800.1767904
2912,0,800.2623279
2913,0,800.3478645
2914,0,800.4334002
2915,0,800.518935
2916,0,800.6044688
2917,0,800.6900017
2918,0,800.7755337
2919,0,800.8610647
2920,0,800.9465949
2921,0,801.0321241
2922,0,801.1176524
2923,0,801.2031797
2924,0,801.2887062
2925,0,801.3742317
2926,0,801.4597562
2927,0,801.5452799
2928,0,801.6308026
2929,0,801.7163244
2930,0,801.8018453
2931,0,801.8873653
2932,0,801.9728843
2933,0,802.0584024
2934,0,802.1439195
2935,0,802.2294358
2936,0,802.3149511
2937,0,802.4004655
2938,0,802.4859789
2939,0,802.5714915
2940,0,802.6570031
2941,0,802.7425137
2942,0,802.8280235
2943,0,802.9135323
2944,0,802.9990402
2945,0,803.0845471
2946,0,803.1700532
2947,0,803.2555583
2948,0,803.3410624
2949,0,803.4265657
2950,0,803.512068
2951,0,803.5975693
2952,0,803.6830698
2953,0,803.7685693
2954,0,803.8540679
2955,0,803.9395655
2956,0,804.0250623
2957,0,804.1105581
2958,0,804.1960529
2959,0,804.2815469
2960,0,804.3670399
2961,0,804.4525319
2962,0,804.5380231
2963,0,804.6235133
2964,0,804.7090025
2965,0,804.7944909
2966,0,804.8799783
2967,0,804.9654648
2968,0,805.0509503
2969,0,805.1364349
2970,0,805.2219186
2971,0,805.3074013
2972,0,805.3928831
2973,0,805.478364
2974,0,805.5638439
2975,0,805.6493229
2976,0,805.734801
2977,0,805.8202781
2978,0,805.9057543
2979,0,805.9912296
2980,0,806.0767039
2981,0,806.1621773
2982,0,806.2476498
2983,0,806.3331213
2984,0,806.4185919
2985,0,806.5040616
2986,0,806.5895303
2987,0,806.674998
2988,0,806.7604649
2989,0,806.8459308
2990,0,806.9313958
2991,0,807.0168598
2992,0,807.1023229
2993,0,807.1877851
2994,0,807.2732463
2995,0,807.3587066
2996,0,807.4441659
2997,0,807.5296243
2998,0,807.6150818
2999,0,807.7005383
3000,0,807.7859939
3001,0,807.8714486
3002,0,807.9569023
3003,0,808.0423551
3004,0,808.1278069
3005,0,808.2132578
3006,0,808.2987078
3007,0,808.3841568
3008,0,808.4696049
3009,0,808.555052
3010,0,808.6404982
3011,0,808.7259435
3012,0,808.8113878
3013,0,808.8968312
3014,0,808.9822736
3015,0,809.0677151
3016,0,809.1531557
3017,0,809.2385953
3018,0,809.324034
3019,0,809.4094717
3020,0,809.4949085
3021,0,809.5803443
3022,0,809.6657792
3023,0,809.7512132
3024,0,809.8366462
3025,0,809.9220783
3026,0,810.0075094
3027,0,810.0929396
3028,0,810.1783689
3029,0,810.2637972
3030,0,810.3492246
3031,0,810.434651
3032,0,810.5200765
3033,0,810.605501
3034,0,810.6909246
3035,0,810.7763472
3036,0,810.8617689
3037,0,810.9471897
3038,0,811.0326095
3039,0,811.1180284
3040,0,811.2034463
3041,0,811.2888633
3042,0,811.3742793
3043,0,811.4596944
3044,0,811.5451085
3045,0,811.6305217
3046,0,811.715934
3047,0,811.8013453
3048,0,811.8867556
3049,0,811.972165
3050,0,812.0575735
3051,0,812.142981
3052,0,812.2283876
3053,0,812.3137932
3054,0,812.3991978
3055,0,812.4846016
3056,0,812.5700043
3057,0,812.6554062
3058,0,812.7408071
3059,0,812.826207
3060,0,812.911606
3061,0,812.997004
3062,0,813.0824011
3063,0,813.1677972
3064,0,813.2531924
3065,0,813.3385866
3066,0,813.4239799
3067,0,813.5093723
3068,0,813.5947637
3069,0,813.6801541
3070,0,813.7655436
3071,0,813.8509321
3072,0,813.9363197
3073,0,814.0217064
3074,0,814.107092
3075,0,814.1924768
3076,0,814.2778606
3077,0,814.3632434
3078,0,814.4486253
3079,0,814.5340062
3080,0,814.6193862
3081,0,814.7047652
3082,0,814.7901433
3083,0,814.8755204
3084,0,814.9608966
3085,0,815.0462718
3086,0,815.1316461
3087,0,815.2170194
3088,0,815.3023917
3089,0,815.3877631
3090,0,815.4731336
3091,0,815.5585031
3092,0,815.6438716
3093,0,815.7292392
3094,0,815.8146059
3095,0,815.8999715
3096,0,815.9853363
3097,0,816.0707
3098,0,816.1560628
3099,0,816.2414247
3100,0,816.3267856
3101,0,816.4121456
3102,0,816.4975046
3103,0,816.5828626
3104,0,816.6682197
3105,0,816.7535758
3106,0,816.838931
3107,0,816.9242852
3108,0,817.0096385
3109,0,817.0949908
3110,0,817.1803421
3111,0,817.2656925
3112,0,817.3510419
3113,0,817.4363904
3114,0,817.5217379
3115,0,817.6070845
3116,0,817.6924301
3117,0,817.7777747
3118,0,817.8631184
3119,0,817.9484611
3120,0,818.0338029
3121,0,818.1191437
3122,0,818.2044836
3123,0,818.2898225
3124,0,818.3751604
3125,0,818.4604974
3126,0,818.5458334
3127,0,818.6311684
3128,0,818.7165025
3129,0,818.8018357
3130,0,818.8871678
3131,0,818.972499
3132,0,819.0578293
3133,0,819.1431586
3134,0,819.2284869
3135,0,819.3138143
3136,0,819.3991407
3137,0,819.4844661
3138,0,819.5697906
3139,0,819.6551142
3140,0,819.7404367
3141,0,819.8257583
3142,0,819.911079
3143,0,819.9963986
3144,0,820.0817174
3145,0,820.1670351
3146,0,820.2523519
3147,0,820.3376677
3148,0,820.4229826
3149,0,820.5082965
3150,0,820.5936094
3151,0,820.6789214
3152,0,820.7642324
3153,0,820.8495424
3154,0,820.9348515
3155,0,821.0201596
3156,0,821.1054668
3157,0,821.190773
3158,0,821.2760782
3159,0,821.3613824
3160,0,821.4466857
3161,0,821.531988
3162,0,821.6172894
3163,0,821.7025898
3164,0,821.7878892
3165,0,821.8731877
3166,0,821.9584852
3167,0,822.0437817
3168,0,822.1290773
3169,0,822.2143719
3170,0,822.2996655
3171,0,822.3849582
3172,0,822.4702499
3173,0,822.5555406
3174,0,822.6408303
3175,0,822.7261191
3176,0,822.811407
3177,0,822.8966938
3178,0,822.9819797
3179,0,823.0672646
3180,0,823.1525486
3181,0,823.2378316
3182,0,823.3231136
3183,0,823.4083946
3184,0,823.4936747
3185,0,823.5789538
3186,0,823.6642319
3187,0,823.7495091
3188,0,823.8347853
3189,0,823.9200605
3190,0,824.0053348
3191,0,824.0906081
3192,0,824.1758804
3193,0,824.2611517
3194,0,824.3464221
3195,0,824.4316915
3196,0,824.5169599
3197,0,824.6022274
3198,0,824.6874939
3199,0,824.7727594
3200,0,824.8580239
3201,0,824.9432875
3202,0,825.0285501
3203,0,825.1138118
3204,0,825.1990724
3205,0,825.2843321
3206,0,825.3695908
3207,0,825.4548485
3208,0,825.5401053
3209,0,825.6253611
3210,0,825.7106159
3211,0,825.7958698
3212,0,825.8811226
3213,0,825.9663745
3214,0,826.0516254
3215,0,826.1368754
3216,0,826.2221244
3217,0,826.3073724
3218,0,826.3926194
3219,0,826.4778654
3220,0,826.5631105
3221,0,826.6483546
3222,0,826.7335977
3223,0,826.8188399
3224,0,826.904081
3225,0,826.9893212
3226,0,827.0745605
3227,0,827.1597987
3228,0,827.245036
3229,0,827.3302722
3230,0,827.4155076
3231,0,827.5007419
3232,0,827.5859753
3233,0,827.6712076
3234,0,827.756439
3235,0,827.8416695
3236,0,827.9268989
3237,0,828.0121274
3238,0,828.0973549
3239,0,828.1825814
3240,0,828.2678069
3241,0,828.3530315
3242,0,828.438255
3243,0,828.5234776
3244,0,828.6086993
3245,0,828.6939199
3246,0,828.7791396
3247,0,828.8643582
3248,0,828.9495759
3249,0,829.0347927
3250,0,829.1200084
3251,0,829.2052232
3252,0,829.2904369
3253,0,829.3756497
3254,0,829.4608616
3255,0,829.5460724
3256,0,829.6312822
3257,0,829.7164911
3258,0,829.801699
3259,0,829.8869059
3260,0,829.9721118
3261,0,830.0573168
3262,0,830.1425208
3263,0,830.2277237
3264,0,830.3129257
3265,0,830.3981268
3266,0,830.4833268
3267,0,830.5685258
3268,0,830.6537239
3269,0,830.738921
3270,0,830.8241171
3271,0,830.9093122
3272,0,830.9945063
3273,0,831.0796995
3274,0,831.1648917
3275,0,831.2500828
3276,0,831.335273
3277,0,831.4204622
3278,0,831.5056505
3279,0,831.5908377
3280,0,831.676024
3281,0,831.7612092
3282,0,831.8463935
3283,0,831.9315768
3284,0,832.0167591
3285,0,832.1019405
3286,0,832.1871208
3287,0,832.2723002
3288,0,832.3574785
3289,0,832.4426559
3290,0,832.5278323
3291,0,832.6130077
3292,0,832.6981821
3293,0,832.7833556
3294,0,832.868528
3295,0,832.9536995
3296,0,833.03887
3297,0,833.1240394
3298,0,833.2092079
3299,0,833.2943754
3300,0,833.379542
3301,0,833.4647075
3302,0,833.549872
3303,0,833.6350356
3304,0,833.7201981
3305,0,833.8053597
3306,0,833.8905203
3307,0,833.9756799
3308,0,834.0608385
3309,0,834.1459961
3310,0,834.2311527
3311,0,834.3163084
3312,0,834.401463
3313,0,834.4866167
3314,0,834.5717693
3315,0,834.656921
3316,0,834.7420717
3317,0,834.8272214
3318,0,834.9123701
3319,0,834.9975178
3320,0,835.0826645
3321,0,835.1678102
3322,0,835.2529549
3323,0,835.3380987
3324,0,835.4232414
3325,0,835.5083832
3326,0,835.5935239
3327,0,835.6786637
3328,0,835.7638025
3329,0,835.8489403
3330,0,835.9340771
3331,0,836.0192128
3332,0,836.1043476
3333,0,836.1894815
3334,0,836.2746143
3335,0,836.3597461
3336,0,836.4448769
3337,0,836.5300067
3338,0,836.6151356
3339,0,836.7002634
3340,0,836.7853902
3341,0,836.8705161
3342,0,836.9556409
3343,0,837.0407648
3344,0,837.1258877
3345,0,837.2110095
3346,0,837.2961304
3347,0,837.3812503
3348,0,837.4663691
3349,0,837.551487
3350,0,837.6366039
3351,0,837.7217198
3352,0,837.8068347
3353,0,837.8919486
3354,0,837.9770615
3355,0,838.0621734
3356,0,838.1472843
3357,0,838.2323942
3358,0,838.3175031
3359,0,838.402611
3360,0,838.4877179
3361,0,838.5728238
3362,0,838.6579287
3363,0,838.7430326
3364,0,838.8281355
3365,0,838.9132374
3366,0,838.9983384
3367,0,839.0834383
3368,0,839.1685372
3369,0,839.2536351
3370,0,839.338732
3371,0,839.4238279
3372,0,839.5089228
3373,0,839.5940167
3374,0,839.6791097
3375,0,839.7642016
3376,0,839.8492925
3377,0,839.9343824
3378,0,840.0194713
3379,0,840.1045592
3380,0,840.1896461
3381,0,840.274732
3382,0,840.3598169
3383,0,840.4449008
3384,0,840.5299837
3385,0,840.6150656
3386,0,840.7001465
3387,0,840.7852264
3388,0,840.8703052
3389,0,840.9553831
3390,0,841.04046
3391,0,841.1255359
3392,0,841.2106108
3393,0,841.2956846
3394,0,841.3807575
3395,0,841.4658293
3396,0,841.5509002
3397,0,841.63597
3398,0,841.7210389
3399,0,841.8061067
3400,0,841.8911736
3401,0,841.9762394
3402,0,842.0613042
3403,0,842.146368
3404,0,842.2314308
3405,0,842.3164927
3406,0,842.4015535
3407,0,842.4866133
3408,0,842.571672
3409,0,842.6567298
3410,0,842.7417866
3411,0,842.8268424
3412,0,842.9118971
3413,0,842.9969509
3414,0,843.0820036
3415,0,843.1670554
3416,0,843.2521061
3417,0,843.3371558
3418,0,843.4222045
3419,0,843.5072523
3420,0,843.592299
3421,0,843.6773446
3422,0,843.7623893
3423,0,843.847433
3424,0,843.9324757
3425,0,844.0175173
3426,0,844.102558
3427,0,844.1875976
3428,0,844.2726362
3429,0,844.3576739
3430,0,844.4427105
3431,0,844.5277461
3432,0,844.6127807
3433,0,844.6978142
3434,0,844.7828468
3435,0,844.8678784
3436,0,844.9529089
3437,0,845.0379384
3438,0,845.122967
3439,0,845.2079945
3440,0,845.293021
3441,0,845.3780465
3442,0,845.4630709
3443,0,845.5480944
3444,0,845.6331168
3445,0,845.7181383
